# == pyFAI calibration ==
# SplineFile: None
# PixelSize: 1.720e-04, 1.720e-04 m
# PONI: 7.052e-03, 2.634e-02 m
# Distance Sample to Detector: 1.134827134 m
# Rotations: 0.017453 -0.000000 0.000000 rad
# 
# == Fit2d calibration ==
# Distance Sample-beamCenter: 1135.000 mm
# Center: x=38.000, y=41.000 pix
# Tilt: 1.000 deg  TiltPlanRot: 180.000 deg
# 
# Wavelength: 1.542e-09
# --> Q:/SIS2M/LIONS/SAXS data/SAXS/OTache/2014-mars\OT-2014-03-31-45d10-3600s.tif.rgr
#       q_nm^-1              I           sigma 
  1.785271e-04    0.000000e+00   0.000000e+00
  5.355814e-04    0.000000e+00   0.000000e+00
  8.926356e-04    0.000000e+00   0.000000e+00
  1.249690e-03    0.000000e+00   0.000000e+00
  1.606744e-03    0.000000e+00   0.000000e+00
  1.963798e-03    0.000000e+00   0.000000e+00
  2.320853e-03    0.000000e+00   0.000000e+00
  2.677907e-03    0.000000e+00   0.000000e+00
  3.034961e-03    0.000000e+00   0.000000e+00
  3.392015e-03    0.000000e+00   0.000000e+00
  3.749069e-03    0.000000e+00   0.000000e+00
  4.106124e-03    0.000000e+00   0.000000e+00
  4.463178e-03    0.000000e+00   0.000000e+00
  4.820232e-03    0.000000e+00   0.000000e+00
  5.177286e-03    0.000000e+00   0.000000e+00
  5.534341e-03    0.000000e+00   0.000000e+00
  5.891395e-03    0.000000e+00   0.000000e+00
  6.248449e-03    7.233248e+05   6.292305e+02
  6.605503e-03    7.001542e+05   4.052008e+02
  6.962558e-03    6.229381e+05   3.106004e+02
  7.319612e-03    5.644149e+05   2.715613e+02
  7.676666e-03    4.912333e+05   2.311833e+02
  8.033720e-03    4.341275e+05   2.019981e+02
  8.390775e-03    3.748371e+05   1.715538e+02
  8.747829e-03    3.214457e+05   1.392501e+02
  9.104883e-03    2.806488e+05   1.229527e+02
  9.461937e-03    2.351672e+05   1.029734e+02
  9.818991e-03    2.022653e+05   9.033618e+01
  1.017605e-02    1.677818e+05   7.904013e+01
  1.053310e-02    1.409484e+05   6.950499e+01
  1.089015e-02    1.166240e+05   6.050116e+01
  1.124721e-02    9.287200e+04   4.855701e+01
  1.160426e-02    7.617975e+04   4.142938e+01
  1.196132e-02    6.048748e+04   3.494280e+01
  1.231837e-02    4.942695e+04   3.049169e+01
  1.267543e-02    3.936238e+04   2.640400e+01
  1.303248e-02    3.208775e+04   2.321275e+01
  1.338953e-02    2.611348e+04   2.078884e+01
  1.374659e-02    2.145297e+04   1.836532e+01
  1.410364e-02    1.845116e+04   1.688856e+01
  1.446070e-02    1.606160e+04   1.543065e+01
  1.481775e-02    1.452111e+04   1.445645e+01
  1.517480e-02    1.343010e+04   1.373088e+01
  1.553186e-02    1.279300e+04   1.315934e+01
  1.588891e-02    1.241337e+04   1.290222e+01
  1.624597e-02    1.221119e+04   1.250768e+01
  1.660302e-02    1.209091e+04   1.234278e+01
  1.696008e-02    1.194545e+04   1.209125e+01
  1.731713e-02    1.178113e+04   1.183428e+01
  1.767418e-02    1.155503e+04   1.164918e+01
  1.803124e-02    1.124237e+04   1.129423e+01
  1.838829e-02    1.086430e+04   1.103900e+01
  1.874535e-02    1.033874e+04   1.059501e+01
  1.910240e-02    9.806188e+03   1.022017e+01
  1.945946e-02    9.161235e+03   9.768669e+00
  1.981651e-02    8.495899e+03   9.297716e+00
  2.017356e-02    7.824896e+03   8.881077e+00
  2.053062e-02    7.112561e+03   8.335608e+00
  2.088767e-02    6.458064e+03   7.894643e+00
  2.124473e-02    5.775390e+03   7.369036e+00
  2.160178e-02    5.185483e+03   6.921056e+00
  2.195884e-02    4.634096e+03   6.489687e+00
  2.231589e-02    4.147259e+03   6.072676e+00
  2.267294e-02    3.725326e+03   5.733986e+00
  2.303000e-02    3.340350e+03   5.353381e+00
  2.338705e-02    3.039830e+03   5.100661e+00
  2.374411e-02    2.772068e+03   4.842040e+00
  2.410116e-02    2.578195e+03   4.643561e+00
  2.445822e-02    2.412026e+03   4.484918e+00
  2.481527e-02    2.286638e+03   4.408309e+00
  2.517232e-02    2.192223e+03   4.405496e+00
  2.552938e-02    2.119530e+03   4.350147e+00
  2.588643e-02    2.069444e+03   4.329508e+00
  2.624349e-02    2.021056e+03   4.296327e+00
  2.660054e-02    1.977568e+03   4.264575e+00
  2.695759e-02    1.937651e+03   4.254592e+00
  2.731465e-02    1.892465e+03   4.209300e+00
  2.767170e-02    1.842760e+03   4.183713e+00
  2.802876e-02    1.783973e+03   4.123411e+00
  2.838581e-02    1.724739e+03   4.074112e+00
  2.874287e-02    1.656723e+03   4.008908e+00
  2.909992e-02    1.582207e+03   3.922713e+00
  2.945697e-02    1.501819e+03   3.846821e+00
  2.981403e-02    1.423279e+03   3.735964e+00
  3.017108e-02    1.349963e+03   3.660011e+00
  3.052814e-02    1.266464e+03   3.547547e+00
  3.088519e-02    1.189180e+03   3.445227e+00
  3.124225e-02    1.113915e+03   3.346951e+00
  3.159930e-02    1.049463e+03   3.247156e+00
  3.195635e-02    9.904792e+02   3.171194e+00
  3.231341e-02    9.319625e+02   3.069200e+00
  3.267046e-02    8.845806e+02   3.001324e+00
  3.302752e-02    8.372005e+02   2.923256e+00
  3.338457e-02    7.999847e+02   2.856764e+00
  3.374163e-02    7.685654e+02   2.801897e+00
  3.409868e-02    7.395663e+02   2.731754e+00
  3.445573e-02    7.137625e+02   2.686976e+00
  3.481279e-02    6.889089e+02   2.628553e+00
  3.516984e-02    6.699138e+02   2.589911e+00
  3.552690e-02    6.469357e+02   2.541278e+00
  3.588395e-02    6.247700e+02   2.487116e+00
  3.624100e-02    6.061003e+02   2.454040e+00
  3.659806e-02    5.884645e+02   2.400826e+00
  3.695511e-02    5.710453e+02   2.368051e+00
  3.731217e-02    5.506563e+02   2.317087e+00
  3.766922e-02    5.325688e+02   2.274991e+00
  3.802628e-02    5.125094e+02   2.229188e+00
  3.838333e-02    4.944292e+02   2.178586e+00
  3.874038e-02    4.766473e+02   2.143806e+00
  3.909744e-02    4.582776e+02   2.088513e+00
  3.945449e-02    4.419085e+02   2.051017e+00
  3.981155e-02    4.244733e+02   2.004526e+00
  4.016860e-02    4.088842e+02   1.963066e+00
  4.052566e-02    3.939779e+02   1.926203e+00
  4.088271e-02    3.812694e+02   1.883764e+00
  4.123976e-02    3.680316e+02   1.854261e+00
  4.159682e-02    3.554809e+02   1.812906e+00
  4.195387e-02    3.439585e+02   1.781388e+00
  4.231093e-02    3.324565e+02   1.748439e+00
  4.266798e-02    3.229503e+02   1.717542e+00
  4.302504e-02    3.146664e+02   1.695919e+00
  4.338209e-02    3.066152e+02   1.664272e+00
  4.373914e-02    2.999317e+02   1.647607e+00
  4.409620e-02    2.927232e+02   1.620780e+00
  4.445325e-02    2.842959e+02   1.595388e+00
  4.481031e-02    2.757069e+02   1.568944e+00
  4.516736e-02    2.674021e+02   1.538455e+00
  4.552441e-02    2.586515e+02   1.515319e+00
  4.588147e-02    2.513817e+02   1.484163e+00
  4.623852e-02    2.441328e+02   1.463501e+00
  4.659558e-02    2.372737e+02   1.438931e+00
  4.695263e-02    2.301859e+02   1.413071e+00
  4.730969e-02    2.227266e+02   1.390014e+00
  4.766674e-02    2.155956e+02   1.361132e+00
  4.802379e-02    2.077572e+02   1.336676e+00
  4.838085e-02    2.008907e+02   1.308247e+00
  4.873790e-02    1.965519e+02   1.293901e+00
  4.909496e-02    1.900748e+02   1.268749e+00
  4.945201e-02    1.849997e+02   1.248425e+00
  4.980907e-02    1.796087e+02   1.230771e+00
  5.016612e-02    1.751733e+02   1.207835e+00
  5.052317e-02    1.706844e+02   1.194085e+00
  5.088023e-02    1.665627e+02   1.174806e+00
  5.123728e-02    1.630933e+02   1.160217e+00
  5.159434e-02    1.598312e+02   1.148077e+00
  5.195139e-02    1.566765e+02   1.131992e+00
  5.230845e-02    1.526457e+02   1.117695e+00
  5.266550e-02    1.495502e+02   1.101045e+00
  5.302255e-02    1.464073e+02   1.089395e+00
  5.337961e-02    1.421114e+02   1.069598e+00
  5.373666e-02    1.387348e+02   1.055687e+00
  5.409372e-02    1.366150e+02   1.046243e+00
  5.445077e-02    1.333423e+02   1.029039e+00
  5.480782e-02    1.300588e+02   1.017745e+00
  5.516488e-02    1.271938e+02   1.000824e+00
  5.552193e-02    1.247433e+02   9.913833e-01
  5.587899e-02    1.219174e+02   9.779605e-01
  5.623604e-02    1.181720e+02   9.595375e-01
  5.659310e-02    1.147942e+02   9.466509e-01
  5.695015e-02    1.124262e+02   9.318299e-01
  5.730720e-02    1.100184e+02   9.221395e-01
  5.766426e-02    1.075860e+02   9.089311e-01
  5.802131e-02    1.052363e+02   8.976091e-01
  5.837837e-02    1.025549e+02   8.847542e-01
  5.873542e-02    9.998762e+01   8.711172e-01
  5.909248e-02    9.796231e+01   8.623459e-01
  5.944953e-02    9.563634e+01   8.477352e-01
  5.980658e-02    9.325348e+01   8.376785e-01
  6.016364e-02    9.101334e+01   8.246554e-01
  6.052069e-02    8.903301e+01   8.146439e-01
  6.087775e-02    8.764675e+01   8.073694e-01
  6.123480e-02    8.642220e+01   7.985476e-01
  6.159186e-02    8.482909e+01   7.920554e-01
  6.194891e-02    8.323134e+01   7.804108e-01
  6.230596e-02    8.150197e+01   7.725198e-01
  6.266302e-02    7.968133e+01   7.621139e-01
  6.302007e-02    7.797044e+01   7.518977e-01
  6.337713e-02    7.625103e+01   7.436756e-01
  6.373418e-02    7.495945e+01   7.338547e-01
  6.409123e-02    7.337401e+01   7.266542e-01
  6.444829e-02    7.183532e+01   7.162982e-01
  6.480534e-02    7.017253e+01   7.072112e-01
  6.516240e-02    6.866980e+01   6.985675e-01
  6.551945e-02    6.747258e+01   6.904932e-01
  6.587651e-02    6.553178e+01   6.807929e-01
  6.623356e-02    6.389663e+01   6.688790e-01
  6.659061e-02    6.306401e+01   6.648429e-01
  6.694767e-02    6.243603e+01   6.595628e-01
  6.730472e-02    6.128662e+01   6.525853e-01
  6.766178e-02    6.007773e+01   6.454517e-01
  6.801883e-02    5.878155e+01   6.361616e-01
  6.837589e-02    5.784478e+01   6.315713e-01
  6.873294e-02    5.670097e+01   6.224599e-01
  6.908999e-02    5.529625e+01   6.147100e-01
  6.944705e-02    5.379433e+01   6.048687e-01
  6.980410e-02    5.314142e+01   5.999385e-01
  7.016116e-02    5.305988e+01   5.993817e-01
  7.051821e-02    5.232085e+01   5.928188e-01
  7.087527e-02    5.149461e+01   5.883927e-01
  7.123232e-02    5.028772e+01   5.792480e-01
  7.158937e-02    4.904258e+01   5.717843e-01
  7.194643e-02    4.817547e+01   5.656861e-01
  7.230348e-02    4.732389e+01   5.593025e-01
  7.266054e-02    4.651690e+01   5.545409e-01
  7.301759e-02    4.557901e+01   5.465069e-01
  7.337465e-02    4.511996e+01   5.441673e-01
  7.373170e-02    4.477994e+01   5.402781e-01
  7.408875e-02    4.394859e+01   5.347630e-01
  7.444581e-02    4.249020e+01   5.251029e-01
  7.480286e-02    4.136312e+01   5.165318e-01
  7.515992e-02    4.093015e+01   5.143396e-01
  7.551697e-02    4.062994e+01   5.098531e-01
  7.587402e-02    4.017019e+01   5.073173e-01
  7.623108e-02    3.932647e+01   5.006271e-01
  7.658813e-02    3.869888e+01   4.957360e-01
  7.694519e-02    3.825846e+01   4.928986e-01
  7.730224e-02    3.803738e+01   4.894109e-01
  7.765930e-02    3.759946e+01   4.870970e-01
  7.801635e-02    3.688897e+01   4.805429e-01
  7.837340e-02    3.612402e+01   4.753114e-01
  7.873046e-02    3.527352e+01   4.690662e-01
  7.908751e-02    3.485783e+01   4.649715e-01
  7.944457e-02    3.464992e+01   4.638701e-01
  7.980162e-02    3.406289e+01   4.579526e-01
  8.015868e-02    3.354533e+01   4.545932e-01
  8.051573e-02    3.326928e+01   4.515610e-01
  8.087278e-02    3.300690e+01   4.490840e-01
  8.122984e-02    3.269654e+01   4.466894e-01
  8.158689e-02    3.198844e+01   4.405298e-01
  8.194395e-02    3.130870e+01   4.359380e-01
  8.230100e-02    3.068743e+01   4.299493e-01
  8.265806e-02    3.022399e+01   4.266254e-01
  8.301511e-02    3.005419e+01   4.245500e-01
  8.337216e-02    2.973476e+01   4.216624e-01
  8.372922e-02    2.890508e+01   4.153357e-01
  8.408627e-02    2.856468e+01   4.117727e-01
  8.444333e-02    2.822413e+01   4.093193e-01
  8.480038e-02    2.733547e+01   4.014471e-01
  8.515743e-02    2.686150e+01   3.979130e-01
  8.551449e-02    2.666488e+01   3.955504e-01
  8.587154e-02    2.643852e+01   3.933423e-01
  8.622860e-02    2.609780e+01   3.905802e-01
  8.658565e-02    2.583277e+01   3.872292e-01
  8.694271e-02    2.565642e+01   3.861530e-01
  8.729976e-02    2.531712e+01   3.822200e-01
  8.765681e-02    2.482688e+01   3.784980e-01
  8.801387e-02    2.446437e+01   3.750515e-01
  8.837092e-02    2.439713e+01   3.736829e-01
  8.872798e-02    2.402848e+01   3.710775e-01
  8.908503e-02    2.368560e+01   3.667013e-01
  8.944209e-02    2.365105e+01   3.668873e-01
  8.979914e-02    2.325992e+01   3.627331e-01
  9.015619e-02    2.286912e+01   3.593093e-01
  9.051325e-02    2.264119e+01   3.573130e-01
  9.087030e-02    2.234115e+01   3.536864e-01
  9.122736e-02    2.221674e+01   3.531772e-01
  9.158441e-02    2.202913e+01   3.501686e-01
  9.194147e-02    2.140481e+01   3.452665e-01
  9.229852e-02    2.109585e+01   3.421525e-01
  9.265557e-02    2.107736e+01   3.412122e-01
  9.301263e-02    2.081640e+01   3.393419e-01
  9.336968e-02    2.033825e+01   3.427619e-01
  9.372674e-02    2.003614e+01   3.495726e-01
  9.408379e-02    1.970723e+01   3.519310e-01
  9.444084e-02    1.947606e+01   3.544445e-01
  9.479790e-02    1.945542e+01   3.586490e-01
  9.515495e-02    1.912474e+01   3.587512e-01
  9.551201e-02    1.879234e+01   3.594844e-01
  9.586906e-02    1.865395e+01   3.603127e-01
  9.622612e-02    1.837270e+01   3.592883e-01
  9.658317e-02    1.806857e+01   3.571958e-01
  9.694022e-02    1.790560e+01   3.565346e-01
  9.729728e-02    1.765395e+01   3.551682e-01
  9.765433e-02    1.771878e+01   3.563350e-01
  9.801139e-02    1.786544e+01   3.590565e-01
  9.836844e-02    1.780611e+01   3.587612e-01
  9.872550e-02    1.735993e+01   3.552029e-01
  9.908255e-02    1.692999e+01   3.514229e-01
  9.943960e-02    1.671204e+01   3.497436e-01
  9.979666e-02    1.662721e+01   3.496853e-01
  1.001537e-01    1.657353e+01   3.493874e-01
  1.005108e-01    1.637244e+01   3.481989e-01
  1.008678e-01    1.617069e+01   3.462307e-01
  1.012249e-01    1.594021e+01   3.445350e-01
  1.015819e-01    1.572777e+01   3.425831e-01
  1.019390e-01    1.550088e+01   3.406593e-01
  1.022960e-01    1.536916e+01   3.397779e-01
  1.026531e-01    1.520850e+01   3.381739e-01
  1.030101e-01    1.519320e+01   3.387737e-01
  1.033672e-01    1.517021e+01   3.385448e-01
  1.037243e-01    1.489559e+01   3.361905e-01
  1.040813e-01    1.457882e+01   3.328691e-01
  1.044384e-01    1.451090e+01   3.324117e-01
  1.047954e-01    1.433976e+01   3.311586e-01
  1.051525e-01    1.452411e+01   3.330620e-01
  1.055095e-01    1.458412e+01   3.345855e-01
  1.058666e-01    1.430496e+01   3.313072e-01
  1.062236e-01    1.399064e+01   3.282462e-01
  1.065807e-01    1.381476e+01   3.265816e-01
  1.069377e-01    1.367599e+01   3.136551e-01
  1.072948e-01    1.346776e+01   3.016152e-01
  1.076519e-01    1.331294e+01   2.933285e-01
  1.080089e-01    1.304174e+01   2.865109e-01
  1.083660e-01    1.283098e+01   2.804780e-01
  1.087230e-01    1.280023e+01   2.770011e-01
  1.090801e-01    1.276398e+01   2.746719e-01
  1.094371e-01    1.259386e+01   2.706784e-01
  1.097942e-01    1.256813e+01   2.701014e-01
  1.101512e-01    1.248931e+01   2.677329e-01
  1.105083e-01    1.226118e+01   2.646966e-01
  1.108653e-01    1.201790e+01   2.612494e-01
  1.112224e-01    1.204970e+01   2.604222e-01
  1.115794e-01    1.213130e+01   2.612028e-01
  1.119365e-01    1.192884e+01   2.574643e-01
  1.122936e-01    1.179369e+01   2.559547e-01
  1.126506e-01    1.175326e+01   2.545325e-01
  1.130077e-01    1.171764e+01   2.534800e-01
  1.133647e-01    1.159769e+01   2.519120e-01
  1.137218e-01    1.146478e+01   2.492781e-01
  1.140788e-01    1.142095e+01   2.489025e-01
  1.144359e-01    1.145243e+01   2.480559e-01
  1.147929e-01    1.129686e+01   2.461609e-01
  1.151500e-01    1.103414e+01   2.427206e-01
  1.155070e-01    1.089025e+01   2.403812e-01
  1.158641e-01    1.064239e+01   2.376512e-01
  1.162212e-01    1.044466e+01   2.343172e-01
  1.165782e-01    1.049830e+01   2.349322e-01
  1.169353e-01    1.055391e+01   2.347889e-01
  1.172923e-01    1.048934e+01   2.336446e-01
  1.176494e-01    1.046039e+01   2.331199e-01
  1.180064e-01    1.042457e+01   2.318946e-01
  1.183635e-01    1.042365e+01   2.319526e-01
  1.187205e-01    1.040371e+01   2.307496e-01
  1.190776e-01    1.036373e+01   2.302202e-01
  1.194346e-01    1.020886e+01   2.280020e-01
  1.197917e-01    1.009892e+01   2.262228e-01
  1.201487e-01    9.910508e+00   2.240769e-01
  1.205058e-01    9.815611e+00   2.221921e-01
  1.208629e-01    9.770435e+00   2.216651e-01
  1.212199e-01    9.737115e+00   2.205872e-01
  1.215770e-01    9.777453e+00   2.208093e-01
  1.219340e-01    9.792856e+00   2.207328e-01
  1.222911e-01    9.536372e+00   2.172499e-01
  1.226481e-01    9.321051e+00   2.147333e-01
  1.230052e-01    9.249190e+00   2.131644e-01
  1.233622e-01    9.234181e+00   2.129210e-01
  1.237193e-01    9.256523e+00   2.127125e-01
  1.240763e-01    9.247948e+00   2.122809e-01
  1.244334e-01    9.250668e+00   2.121439e-01
  1.247905e-01    9.184792e+00   2.108351e-01
  1.251475e-01    8.983624e+00   2.084455e-01
  1.255046e-01    8.701778e+00   2.045451e-01
  1.258616e-01    8.714186e+00   2.045466e-01
  1.262187e-01    8.856650e+00   2.058649e-01
  1.265757e-01    8.841667e+00   2.053378e-01
  1.269328e-01    8.760871e+00   2.042366e-01
  1.272898e-01    8.705066e+00   2.030999e-01
  1.276469e-01    8.828816e+00   2.044649e-01
  1.280039e-01    8.842856e+00   2.040794e-01
  1.283610e-01    8.813186e+00   2.035815e-01
  1.287181e-01    8.566678e+00   2.003890e-01
  1.290751e-01    8.262310e+00   1.964734e-01
  1.294322e-01    8.252827e+00   1.962493e-01
  1.297892e-01    8.351384e+00   1.969089e-01
  1.301463e-01    8.056704e+00   1.933338e-01
  1.305033e-01    7.894473e+00   1.909211e-01
  1.308604e-01    8.062037e+00   1.927759e-01
  1.312174e-01    8.028191e+00   1.920801e-01
  1.315745e-01    7.861266e+00   1.897967e-01
  1.319315e-01    7.586694e+00   1.863317e-01
  1.322886e-01    7.539754e+00   1.852629e-01
  1.326456e-01    7.677368e+00   1.868939e-01
  1.330027e-01    7.635905e+00   1.859601e-01
  1.333598e-01    7.615399e+00   1.855935e-01
  1.337168e-01    7.730599e+00   1.867556e-01
  1.340739e-01    7.680369e+00   1.857766e-01
  1.344309e-01    7.549893e+00   1.841556e-01
  1.347880e-01    7.521091e+00   1.832554e-01
  1.351450e-01    7.618630e+00   1.844579e-01
  1.355021e-01    7.562325e+00   1.834023e-01
  1.358591e-01    7.431678e+00   1.816235e-01
  1.362162e-01    7.375814e+00   1.807912e-01
  1.365732e-01    7.260250e+00   1.789051e-01
  1.369303e-01    7.221302e+00   1.784871e-01
  1.372874e-01    7.255607e+00   1.783981e-01
  1.376444e-01    7.181306e+00   1.774667e-01
  1.380015e-01    7.210545e+00   1.775057e-01
  1.383585e-01    7.251121e+00   1.777415e-01
  1.387156e-01    7.117187e+00   1.760730e-01
  1.390726e-01    6.993665e+00   1.740065e-01
  1.394297e-01    6.821488e+00   1.719170e-01
  1.397867e-01    6.662642e+00   1.694651e-01
  1.401438e-01    6.667960e+00   1.694739e-01
  1.405008e-01    6.711552e+00   1.698435e-01
  1.408579e-01    6.605054e+00   1.681228e-01
  1.412149e-01    6.555800e+00   1.675414e-01
  1.415720e-01    6.550755e+00   1.669352e-01
  1.419291e-01    6.503644e+00   1.664160e-01
  1.422861e-01    6.442452e+00   1.652717e-01
  1.426432e-01    6.501668e+00   1.658624e-01
  1.430002e-01    6.409628e+00   1.646077e-01
  1.433573e-01    6.378628e+00   1.637697e-01
  1.437143e-01    6.525851e+00   1.657661e-01
  1.440714e-01    6.486747e+00   1.647641e-01
  1.444284e-01    6.390585e+00   1.635161e-01
  1.447855e-01    6.341388e+00   1.626773e-01
  1.451425e-01    6.429256e+00   1.635106e-01
  1.454996e-01    6.505817e+00   1.645149e-01
  1.458567e-01    6.487507e+00   1.637574e-01
  1.462137e-01    6.401624e+00   1.628000e-01
  1.465708e-01    6.360057e+00   1.618766e-01
  1.469278e-01    6.291564e+00   1.608737e-01
  1.472849e-01    6.129927e+00   1.586751e-01
  1.476419e-01    6.104281e+00   1.579855e-01
  1.479990e-01    6.144293e+00   1.586132e-01
  1.483560e-01    6.059699e+00   1.570080e-01
  1.487131e-01    5.937494e+00   1.554687e-01
  1.490701e-01    5.931280e+00   1.551221e-01
  1.494272e-01    5.920962e+00   1.547698e-01
  1.497843e-01    5.904347e+00   1.545572e-01
  1.501413e-01    6.019738e+00   1.555926e-01
  1.504984e-01    5.993805e+00   1.554110e-01
  1.508554e-01    5.962699e+00   1.545686e-01
  1.512125e-01    6.006854e+00   1.550721e-01
  1.515695e-01    5.913061e+00   1.537114e-01
  1.519266e-01    5.878336e+00   1.529798e-01
  1.522836e-01    5.786777e+00   1.518441e-01
  1.526407e-01    5.726982e+00   1.505916e-01
  1.529977e-01    5.711264e+00   1.504612e-01
  1.533548e-01    5.744794e+00   1.505969e-01
  1.537118e-01    5.790330e+00   1.510351e-01
  1.540689e-01    5.660408e+00   1.492911e-01
  1.544260e-01    5.571962e+00   1.477804e-01
  1.547830e-01    5.627563e+00   1.485837e-01
  1.551401e-01    5.615427e+00   1.479963e-01
  1.554971e-01    5.562706e+00   1.473027e-01
  1.558542e-01    5.592533e+00   1.475325e-01
  1.562112e-01    5.600844e+00   1.474071e-01
  1.565683e-01    5.605976e+00   1.474679e-01
  1.569253e-01    5.645164e+00   1.475866e-01
  1.572824e-01    5.623178e+00   1.473984e-01
  1.576394e-01    5.637821e+00   1.472345e-01
  1.579965e-01    5.510399e+00   1.454726e-01
  1.583536e-01    5.458955e+00   1.447074e-01
  1.587106e-01    5.478685e+00   1.446667e-01
  1.590677e-01    5.531100e+00   1.454083e-01
  1.594247e-01    5.536860e+00   1.451223e-01
  1.597818e-01    5.398469e+00   1.433030e-01
  1.601388e-01    5.230620e+00   1.408155e-01
  1.604959e-01    5.109917e+00   1.390250e-01
  1.608529e-01    5.163486e+00   1.397509e-01
  1.612100e-01    5.251181e+00   1.405979e-01
  1.615670e-01    5.165441e+00   1.394668e-01
  1.619241e-01    5.154967e+00   1.390283e-01
  1.622811e-01    5.154043e+00   1.389746e-01
  1.626382e-01    5.038652e+00   1.372642e-01
  1.629953e-01    4.964828e+00   1.360235e-01
  1.633523e-01    5.085009e+00   1.376993e-01
  1.637094e-01    5.122484e+00   1.378567e-01
  1.640664e-01    5.075882e+00   1.372539e-01
  1.644235e-01    5.117469e+00   1.375706e-01
  1.647805e-01    5.156903e+00   1.379838e-01
  1.651376e-01    5.048424e+00   1.364343e-01
  1.654946e-01    4.946129e+00   1.348198e-01
  1.658517e-01    4.942236e+00   1.347818e-01
  1.662087e-01    4.925098e+00   1.342302e-01
  1.665658e-01    4.872252e+00   1.334936e-01
  1.669229e-01    4.819361e+00   1.326072e-01
  1.672799e-01    4.838157e+00   1.326973e-01
  1.676370e-01    4.786488e+00   1.319313e-01
  1.679940e-01    4.834509e+00   1.323608e-01
  1.683511e-01    5.029412e+00   1.349983e-01
  1.687081e-01    5.030578e+00   1.347500e-01
  1.690652e-01    4.810460e+00   1.317048e-01
  1.694222e-01    4.672275e+00   1.296794e-01
  1.697793e-01    4.671671e+00   1.294888e-01
  1.701363e-01    4.786759e+00   1.310581e-01
  1.704934e-01    4.880122e+00   1.320565e-01
  1.708505e-01    4.828767e+00   1.313576e-01
  1.712075e-01    4.687252e+00   1.291943e-01
  1.715646e-01    4.581301e+00   1.276450e-01
  1.719216e-01    4.569195e+00   1.273790e-01
  1.722787e-01    4.687306e+00   1.288091e-01
  1.726357e-01    4.701197e+00   1.290099e-01
  1.729928e-01    4.634411e+00   1.278344e-01
  1.733498e-01    4.651722e+00   1.280197e-01
  1.737069e-01    4.597509e+00   1.271302e-01
  1.740639e-01    4.489866e+00   1.255186e-01
  1.744210e-01    4.498128e+00   1.255321e-01
  1.747780e-01    4.556235e+00   1.261572e-01
  1.751351e-01    4.540462e+00   1.259261e-01
  1.754922e-01    4.407922e+00   1.238484e-01
  1.758492e-01    4.402870e+00   1.237093e-01
  1.762063e-01    4.545236e+00   1.255853e-01
  1.765633e-01    4.573166e+00   1.258239e-01
  1.769204e-01    4.494445e+00   1.246735e-01
  1.772774e-01    4.560133e+00   1.253780e-01
  1.776345e-01    4.641277e+00   1.264668e-01
  1.779915e-01    4.583272e+00   1.254697e-01
  1.783486e-01    4.414825e+00   1.230717e-01
  1.787056e-01    4.426347e+00   1.231173e-01
  1.790627e-01    4.543312e+00   1.245831e-01
  1.794198e-01    4.521719e+00   1.242604e-01
  1.797768e-01    4.442378e+00   1.229380e-01
  1.801339e-01    4.402764e+00   1.223485e-01
  1.804909e-01    4.499506e+00   1.235546e-01
  1.808480e-01    4.527883e+00   1.238216e-01
  1.812050e-01    4.436445e+00   1.224674e-01
  1.815621e-01    4.422516e+00   1.221365e-01
  1.819191e-01    4.518747e+00   1.234127e-01
  1.822762e-01    4.532458e+00   1.233756e-01
  1.826332e-01    4.496146e+00   1.228679e-01
  1.829903e-01    4.340484e+00   1.205752e-01
  1.833473e-01    4.275910e+00   1.195452e-01
  1.837044e-01    4.341179e+00   1.204114e-01
  1.840615e-01    4.313328e+00   1.198374e-01
  1.844185e-01    4.291552e+00   1.195019e-01
  1.847756e-01    4.312339e+00   1.195994e-01
  1.851326e-01    4.246335e+00   1.186436e-01
  1.854897e-01    4.236778e+00   1.183829e-01
  1.858467e-01    4.222470e+00   1.180523e-01
  1.862038e-01    4.138813e+00   1.168308e-01
  1.865608e-01    4.094004e+00   1.160150e-01
  1.869179e-01    4.182608e+00   1.172494e-01
  1.872749e-01    4.247747e+00   1.179655e-01
  1.876320e-01    4.240631e+00   1.178118e-01
  1.879891e-01    4.219253e+00   1.174393e-01
  1.883461e-01    4.221044e+00   1.172812e-01
  1.887032e-01    4.229282e+00   1.173665e-01
  1.890602e-01    4.183504e+00   1.165672e-01
  1.894173e-01    4.102420e+00   1.153922e-01
  1.897743e-01    4.113075e+00   1.153747e-01
  1.901314e-01    4.191307e+00   1.164104e-01
  1.904884e-01    4.174073e+00   1.160927e-01
  1.908455e-01    4.209403e+00   1.163887e-01
  1.912025e-01    4.133955e+00   1.153621e-01
  1.915596e-01    4.073999e+00   1.143165e-01
  1.919167e-01    4.116292e+00   1.148626e-01
  1.922737e-01    4.165395e+00   1.154456e-01
  1.926308e-01    4.126379e+00   1.147886e-01
  1.929878e-01    4.051379e+00   1.136654e-01
  1.933449e-01    3.983241e+00   1.125555e-01
  1.937019e-01    3.984548e+00   1.125748e-01
  1.940590e-01    4.075781e+00   1.136445e-01
  1.944160e-01    4.128537e+00   1.143534e-01
  1.947731e-01    4.176867e+00   1.149322e-01
  1.951301e-01    4.113053e+00   1.138785e-01
  1.954872e-01    4.046095e+00   1.129508e-01
  1.958442e-01    3.959801e+00   1.115422e-01
  1.962013e-01    3.920607e+00   1.109863e-01
  1.965584e-01    3.966818e+00   1.114874e-01
  1.969154e-01    4.000573e+00   1.118772e-01
  1.972725e-01    3.941224e+00   1.109874e-01
  1.976295e-01    3.854821e+00   1.095999e-01
  1.979866e-01    3.921254e+00   1.105436e-01
  1.983436e-01    3.963613e+00   1.109390e-01
  1.987007e-01    3.973398e+00   1.110684e-01
  1.990577e-01    3.991839e+00   1.111945e-01
  1.994148e-01    4.080323e+00   1.123111e-01
  1.997718e-01    4.059194e+00   1.119986e-01
  2.001289e-01    3.908784e+00   1.096996e-01
  2.004860e-01    3.908094e+00   1.097216e-01
  2.008430e-01    3.923015e+00   1.097539e-01
  2.012001e-01    3.901636e+00   1.093869e-01
  2.015571e-01    3.796830e+00   1.078521e-01
  2.019142e-01    3.660050e+00   1.057446e-01
  2.022712e-01    3.739484e+00   1.068651e-01
  2.026283e-01    3.772073e+00   1.071595e-01
  2.029853e-01    3.840065e+00   1.081335e-01
  2.033424e-01    3.882348e+00   1.085476e-01
  2.036994e-01    3.821355e+00   1.076388e-01
  2.040565e-01    3.813894e+00   1.074964e-01
  2.044135e-01    3.836560e+00   1.076055e-01
  2.047706e-01    3.847026e+00   1.078105e-01
  2.051277e-01    3.757246e+00   1.063478e-01
  2.054847e-01    3.765376e+00   1.064203e-01
  2.058418e-01    3.839566e+00   1.073914e-01
  2.061988e-01    3.883919e+00   1.078780e-01
  2.065559e-01    3.905862e+00   1.081573e-01
  2.069129e-01    3.858171e+00   1.073270e-01
  2.072700e-01    3.821514e+00   1.068317e-01
  2.076270e-01    3.837472e+00   1.068729e-01
  2.079841e-01    3.798097e+00   1.062858e-01
  2.083411e-01    3.792251e+00   1.061436e-01
  2.086982e-01    3.824056e+00   1.064185e-01
  2.090553e-01    3.804776e+00   1.061749e-01
  2.094123e-01    3.688102e+00   1.043450e-01
  2.097694e-01    3.680191e+00   1.042386e-01
  2.101264e-01    3.715497e+00   1.046057e-01
  2.104835e-01    3.643660e+00   1.034945e-01
  2.108405e-01    3.676865e+00   1.039573e-01
  2.111976e-01    3.811569e+00   1.056530e-01
  2.115546e-01    3.878122e+00   1.065980e-01
  2.119117e-01    3.825974e+00   1.057096e-01
  2.122687e-01    3.733361e+00   1.043820e-01
  2.126258e-01    3.711383e+00   1.040039e-01
  2.129829e-01    3.693543e+00   1.036185e-01
  2.133399e-01    3.649685e+00   1.029953e-01
  2.136970e-01    3.691378e+00   1.034163e-01
  2.140540e-01    3.724441e+00   1.038965e-01
  2.144111e-01    3.662775e+00   1.028623e-01
  2.147681e-01    3.661331e+00   1.028000e-01
  2.151252e-01    3.731396e+00   1.037406e-01
  2.154822e-01    3.706989e+00   1.032129e-01
  2.158393e-01    3.677449e+00   1.028515e-01
  2.161963e-01    3.618535e+00   1.018409e-01
  2.165534e-01    3.540979e+00   1.007174e-01
  2.169104e-01    3.649724e+00   1.021826e-01
  2.172675e-01    3.730469e+00   1.031755e-01
  2.176246e-01    3.686448e+00   1.025522e-01
  2.179816e-01    3.640233e+00   1.017612e-01
  2.183387e-01    3.654358e+00   1.019646e-01
  2.186957e-01    3.572811e+00   1.006533e-01
  2.190528e-01    3.538976e+00   1.001560e-01
  2.194098e-01    3.495897e+00   9.947910e-02
  2.197669e-01    3.468369e+00   9.893704e-02
  2.201239e-01    3.460732e+00   9.885638e-02
  2.204810e-01    3.513894e+00   9.943115e-02
  2.208380e-01    3.514965e+00   9.946559e-02
  2.211951e-01    3.507137e+00   9.923211e-02
  2.215522e-01    3.503551e+00   9.908497e-02
  2.219092e-01    3.586018e+00   1.002411e-01
  2.222663e-01    3.655677e+00   1.010458e-01
  2.226233e-01    3.572859e+00   9.990638e-02
  2.229804e-01    3.455660e+00   9.810527e-02
  2.233374e-01    3.389563e+00   9.713846e-02
  2.236945e-01    3.419240e+00   9.749113e-02
  2.240515e-01    3.515326e+00   9.872132e-02
  2.244086e-01    3.555078e+00   9.928468e-02
  2.247656e-01    3.574172e+00   9.939712e-02
  2.251227e-01    3.568388e+00   9.932518e-02
  2.254797e-01    3.515695e+00   9.845066e-02
  2.258368e-01    3.465752e+00   9.921624e-02
  2.261939e-01    3.389474e+00   1.003163e-01
  2.265509e-01    3.341426e+00   1.009021e-01
  2.269080e-01    3.368038e+00   1.022291e-01
  2.272650e-01    3.397891e+00   1.030575e-01
  2.276221e-01    3.432750e+00   1.040269e-01
  2.279791e-01    3.467077e+00   1.048054e-01
  2.283362e-01    3.495843e+00   1.055522e-01
  2.286932e-01    3.481474e+00   1.056691e-01
  2.290503e-01    3.479670e+00   1.058372e-01
  2.294073e-01    3.512286e+00   1.066310e-01
  2.297644e-01    3.501567e+00   1.066652e-01
  2.301215e-01    3.497318e+00   1.068264e-01
  2.304785e-01    3.460804e+00   1.064756e-01
  2.308356e-01    3.450671e+00   1.065253e-01
  2.311926e-01    3.505347e+00   1.075510e-01
  2.315497e-01    3.449440e+00   1.068696e-01
  2.319067e-01    3.330280e+00   1.052249e-01
  2.322638e-01    3.345595e+00   1.055426e-01
  2.326208e-01    3.373656e+00   1.062163e-01
  2.329779e-01    3.444721e+00   1.074777e-01
  2.333349e-01    3.497868e+00   1.084268e-01
  2.336920e-01    3.538532e+00   1.092711e-01
  2.340491e-01    3.524450e+00   1.091217e-01
  2.344061e-01    3.474426e+00   1.085447e-01
  2.347632e-01    3.471055e+00   1.086074e-01
  2.351202e-01    3.482328e+00   1.088967e-01
  2.354773e-01    3.394938e+00   1.076923e-01
  2.358343e-01    3.327004e+00   1.067122e-01
  2.361914e-01    3.408928e+00   1.081503e-01
  2.365484e-01    3.463061e+00   1.091047e-01
  2.369055e-01    3.452808e+00   1.090920e-01
  2.372625e-01    3.408214e+00   1.084676e-01
  2.376196e-01    3.482037e+00   1.097708e-01
  2.379766e-01    3.554378e+00   1.110330e-01
  2.383337e-01    3.536646e+00   1.108292e-01
  2.386908e-01    3.503276e+00   1.104732e-01
  2.390478e-01    3.452728e+00   1.096951e-01
  2.394049e-01    3.427893e+00   1.094550e-01
  2.397619e-01    3.395300e+00   1.090340e-01
  2.401190e-01    3.390873e+00   1.090366e-01
  2.404760e-01    3.403184e+00   1.093645e-01
  2.408331e-01    3.434713e+00   1.099307e-01
  2.411901e-01    3.400055e+00   1.094989e-01
  2.415472e-01    3.368880e+00   1.090550e-01
  2.419042e-01    3.344867e+00   1.087773e-01
  2.422613e-01    3.334005e+00   1.086908e-01
  2.426184e-01    3.365690e+00   1.092729e-01
  2.429754e-01    3.409275e+00   1.101091e-01
  2.433325e-01    3.404052e+00   1.100467e-01
  2.436895e-01    3.332709e+00   1.090112e-01
  2.440466e-01    3.318159e+00   1.088415e-01
  2.444036e-01    3.387049e+00   1.100464e-01
  2.447607e-01    3.386544e+00   1.101171e-01
  2.451177e-01    3.327946e+00   1.092464e-01
  2.454748e-01    3.333279e+00   1.094163e-01
  2.458318e-01    3.365909e+00   1.099979e-01
  2.461889e-01    3.345520e+00   1.097700e-01
  2.465459e-01    3.393158e+00   1.105961e-01
  2.469030e-01    3.502188e+00   1.124583e-01
  2.472601e-01    3.469871e+00   1.120081e-01
  2.476171e-01    3.456250e+00   1.118224e-01
  2.479742e-01    3.529641e+00   1.131486e-01
  2.483312e-01    3.554479e+00   1.135443e-01
  2.486883e-01    3.542236e+00   1.134482e-01
  2.490453e-01    3.519052e+00   1.131638e-01
  2.494024e-01    3.512093e+00   1.130795e-01
  2.497594e-01    3.505237e+00   1.130881e-01
  2.501165e-01    3.479517e+00   1.126908e-01
  2.504735e-01    3.484931e+00   1.128612e-01
  2.508306e-01    3.652495e+00   1.156208e-01
  2.511877e-01    3.741381e+00   1.170671e-01
  2.515447e-01    3.952054e+00   1.203939e-01
  2.519018e-01    4.047195e+00   1.219148e-01
  2.522588e-01    3.961856e+00   1.206772e-01
  2.526159e-01    3.976090e+00   1.209377e-01
  2.529729e-01    3.663705e+00   1.162012e-01
  2.533300e-01    3.507947e+00   1.136924e-01
  2.536870e-01    3.364774e+00   1.114667e-01
  2.540441e-01    3.327438e+00   1.109027e-01
  2.544011e-01    3.343705e+00   1.111775e-01
  2.547582e-01    3.404897e+00   1.123209e-01
  2.551152e-01    3.515683e+00   1.141171e-01
  2.554723e-01    3.494721e+00   1.138777e-01
  2.558294e-01    3.401230e+00   1.124027e-01
  2.561864e-01    3.290152e+00   1.105517e-01
  2.565435e-01    3.281976e+00   1.105481e-01
  2.569005e-01    3.305027e+00   1.109301e-01
  2.572576e-01    3.345901e+00   1.116818e-01
  2.576146e-01    3.318940e+00   1.112777e-01
  2.579717e-01    3.317234e+00   1.112989e-01
  2.583287e-01    3.390481e+00   1.125778e-01
  2.586858e-01    3.454282e+00   1.136884e-01
  2.590428e-01    3.441102e+00   1.135305e-01
  2.593999e-01    3.511730e+00   1.147020e-01
  2.597570e-01    3.588284e+00   1.160415e-01
  2.601140e-01    3.549445e+00   1.154076e-01
  2.604711e-01    3.609112e+00   1.164693e-01
  2.608281e-01    3.719270e+00   1.182909e-01
  2.611852e-01    3.616353e+00   1.166440e-01
  2.615422e-01    3.425100e+00   1.136225e-01
  2.618993e-01    3.250409e+00   1.106651e-01
  2.622563e-01    3.232051e+00   1.104457e-01
  2.626134e-01    3.253740e+00   1.108408e-01
  2.629704e-01    3.239414e+00   1.106445e-01
  2.633275e-01    3.282162e+00   1.114602e-01
  2.636846e-01    3.262666e+00   1.110919e-01
  2.640416e-01    3.241258e+00   1.108322e-01
  2.643987e-01    3.193469e+00   1.100089e-01
  2.647557e-01    3.255949e+00   1.111534e-01
  2.651128e-01    3.358913e+00   1.129321e-01
  2.654698e-01    3.333055e+00   1.125169e-01
  2.658269e-01    3.311812e+00   1.122619e-01
  2.661839e-01    3.379083e+00   1.133569e-01
  2.665410e-01    3.392431e+00   1.136747e-01
  2.668980e-01    3.351910e+00   1.130185e-01
  2.672551e-01    3.287041e+00   1.119583e-01
  2.676121e-01    3.245728e+00   1.113338e-01
  2.679692e-01    3.194272e+00   1.104103e-01
  2.683263e-01    3.243148e+00   1.113479e-01
  2.686833e-01    3.265485e+00   1.117366e-01
  2.690404e-01    3.233227e+00   1.112374e-01
  2.693974e-01    3.202930e+00   1.107377e-01
  2.697545e-01    3.138048e+00   1.096676e-01
  2.701115e-01    3.087314e+00   1.088323e-01
  2.704686e-01    3.123377e+00   1.094432e-01
  2.708256e-01    3.109177e+00   1.092842e-01
  2.711827e-01    3.125862e+00   1.095530e-01
  2.715397e-01    3.122096e+00   1.095993e-01
  2.718968e-01    3.160786e+00   1.102720e-01
  2.722539e-01    3.192629e+00   1.108383e-01
  2.726109e-01    3.160561e+00   1.103912e-01
  2.729680e-01    3.108085e+00   1.093952e-01
  2.733250e-01    3.159185e+00   1.104234e-01
  2.736821e-01    3.199083e+00   1.110910e-01
  2.740391e-01    3.195401e+00   1.110697e-01
  2.743962e-01    3.182863e+00   1.109683e-01
  2.747532e-01    3.237770e+00   1.118187e-01
  2.751103e-01    3.286006e+00   1.127840e-01
  2.754673e-01    3.384541e+00   1.144406e-01
  2.758244e-01    3.420778e+00   1.165330e-01
  2.761814e-01    3.342058e+00   1.200418e-01
  2.765385e-01    3.186817e+00   1.201984e-01
  2.768956e-01    3.152845e+00   1.218228e-01
  2.772526e-01    3.298516e+00   1.260040e-01
  2.776097e-01    3.270058e+00   1.263892e-01
  2.779667e-01    3.186529e+00   1.257376e-01
  2.783238e-01    3.239445e+00   1.276708e-01
  2.786808e-01    3.293395e+00   1.295139e-01
  2.790379e-01    3.288916e+00   1.303291e-01
  2.793949e-01    3.186718e+00   1.290094e-01
  2.797520e-01    3.211506e+00   1.302809e-01
  2.801090e-01    3.353710e+00   1.339363e-01
  2.804661e-01    3.433342e+00   1.361809e-01
  2.808232e-01    3.265525e+00   1.336088e-01
  2.811802e-01    3.178741e+00   1.325115e-01
  2.815373e-01    3.125907e+00   1.320323e-01
  2.818943e-01    3.077834e+00   1.317640e-01
  2.822514e-01    3.013348e+00   1.309784e-01
  2.826084e-01    2.955915e+00   1.303814e-01
  2.829655e-01    2.947325e+00   1.308635e-01
  2.833225e-01    3.035544e+00   1.333724e-01
  2.836796e-01    3.134250e+00   1.362502e-01
  2.840366e-01    3.150324e+00   1.372355e-01
  2.843937e-01    3.116519e+00   1.371018e-01
  2.847508e-01    3.154258e+00   1.386195e-01
  2.851078e-01    3.228234e+00   1.408397e-01
  2.854649e-01    3.207728e+00   1.410788e-01
  2.858219e-01    3.111200e+00   1.395771e-01
  2.861790e-01    3.037681e+00   1.384783e-01
  2.865360e-01    3.160881e+00   1.419621e-01
  2.868931e-01    3.192642e+00   1.432962e-01
  2.872501e-01    3.154336e+00   1.430537e-01
  2.876072e-01    3.135009e+00   1.432802e-01
  2.879642e-01    3.079521e+00   1.425863e-01
  2.883213e-01    3.046113e+00   1.424839e-01
  2.886783e-01    3.029124e+00   1.427052e-01
  2.890354e-01    3.042779e+00   1.436168e-01
  2.893925e-01    3.102370e+00   1.456856e-01
  2.897495e-01    3.030211e+00   1.445810e-01
  2.901066e-01    3.017400e+00   1.449542e-01
  2.904636e-01    3.060859e+00   1.466290e-01
  2.908207e-01    3.077937e+00   1.476560e-01
  2.911777e-01    3.048595e+00   1.473712e-01
  2.915348e-01    3.176942e+00   1.506124e-01
  2.918918e-01    3.157493e+00   1.501370e-01
  2.922489e-01    3.217554e+00   1.516460e-01
  2.926059e-01    3.265301e+00   1.528490e-01
  2.929630e-01    3.359221e+00   1.550230e-01
  2.933201e-01    3.293662e+00   1.536129e-01
  2.936771e-01    3.162824e+00   1.505593e-01
  2.940342e-01    3.046437e+00   1.478113e-01
  2.943912e-01    3.057879e+00   1.482094e-01
  2.947483e-01    3.103282e+00   1.492822e-01
  2.951053e-01    3.118067e+00   1.497278e-01
  2.954624e-01    3.088942e+00   1.490978e-01
  2.958194e-01    3.050376e+00   1.484179e-01
  2.961765e-01    3.076319e+00   1.495819e-01
  2.965335e-01    3.086435e+00   1.504513e-01
  2.968906e-01    3.129758e+00   1.520744e-01
  2.972476e-01    3.251437e+00   1.556396e-01
  2.976047e-01    3.215894e+00   1.554018e-01
  2.979618e-01    3.108727e+00   1.534178e-01
  2.983188e-01    3.105789e+00   1.539540e-01
  2.986759e-01    3.155169e+00   1.557896e-01
  2.990329e-01    3.160781e+00   1.565561e-01
  2.993900e-01    3.075429e+00   1.550415e-01
  2.997470e-01    3.031738e+00   1.545560e-01
  3.001041e-01    2.967513e+00   1.535253e-01
  3.004611e-01    2.916100e+00   1.527978e-01
  3.008182e-01    3.010719e+00   1.559286e-01
  3.011752e-01    3.086837e+00   1.585076e-01
  3.015323e-01    3.015238e+00   1.573268e-01
  3.018894e-01    3.038978e+00   1.585511e-01
  3.022464e-01    3.036459e+00   1.591717e-01
  3.026035e-01    2.979701e+00   1.582981e-01
  3.029605e-01    2.966682e+00   1.586050e-01
  3.033176e-01    3.065285e+00   1.618978e-01
  3.036746e-01    3.182589e+00   1.656576e-01
  3.040317e-01    3.246384e+00   1.680508e-01
  3.043887e-01    3.117536e+00   1.653437e-01
  3.047458e-01    2.952835e+00   1.615775e-01
  3.051028e-01    2.948970e+00   1.621844e-01
  3.054599e-01    2.996967e+00   1.641578e-01
  3.058170e-01    3.104732e+00   1.677917e-01
  3.061740e-01    3.148801e+00   1.697568e-01
  3.065311e-01    3.120922e+00   1.697114e-01
  3.068881e-01    3.134747e+00   1.708192e-01
  3.072452e-01    3.163289e+00   1.723592e-01
  3.076022e-01    3.096710e+00   1.712461e-01
  3.079593e-01    3.075577e+00   1.713900e-01
  3.083163e-01    3.097479e+00   1.727914e-01
  3.086734e-01    3.146731e+00   1.749457e-01
  3.090304e-01    3.183803e+00   1.767368e-01
  3.093875e-01    3.316682e+00   1.812254e-01
  3.097445e-01    3.262575e+00   1.805367e-01
  3.101016e-01    3.185913e+00   1.791761e-01
  3.104587e-01    3.079672e+00   1.769392e-01
  3.108157e-01    2.974475e+00   1.747433e-01
  3.111728e-01    3.015559e+00   1.767764e-01
  3.115298e-01    3.113140e+00   1.804131e-01
  3.118869e-01    3.206010e+00   1.839136e-01
  3.122439e-01    3.240824e+00   1.858151e-01
  3.126010e-01    3.174437e+00   1.847358e-01
  3.129580e-01    3.110590e+00   1.837024e-01
  3.133151e-01    3.091374e+00   1.840525e-01
  3.136721e-01    3.081625e+00   1.846779e-01
  3.140292e-01    2.956297e+00   1.817429e-01
  3.143863e-01    2.948643e+00   1.823590e-01
  3.147433e-01    3.036649e+00   1.859345e-01
  3.151004e-01    3.054589e+00   1.873697e-01
  3.154574e-01    3.022680e+00   1.874406e-01
  3.158145e-01    3.163059e+00   1.926768e-01
  3.161715e-01    3.275278e+00   1.970188e-01
  3.165286e-01    3.306492e+00   1.989252e-01
  3.168856e-01    3.288325e+00   1.993564e-01
  3.172427e-01    3.245971e+00   1.991112e-01
  3.175997e-01    3.202332e+00   1.988841e-01
  3.179568e-01    3.218075e+00   2.003795e-01
  3.183138e-01    3.166121e+00   1.997673e-01
  3.186709e-01    3.160108e+00   2.006013e-01
  3.190280e-01    3.254768e+00   2.046362e-01
  3.193850e-01    3.386094e+00   2.099043e-01
  3.197421e-01    3.258036e+00   2.070847e-01
  3.200991e-01    3.106447e+00   2.032826e-01
  3.204562e-01    3.058668e+00   2.027923e-01
  3.208132e-01    3.078056e+00   2.045304e-01
  3.211703e-01    3.054162e+00   2.048429e-01
  3.215273e-01    3.179836e+00   2.102874e-01
  3.218844e-01    3.192883e+00   2.119177e-01
  3.222414e-01    3.153515e+00   2.118332e-01
  3.225985e-01    3.092672e+00   2.109619e-01
  3.229556e-01    3.325827e+00   2.200140e-01
  3.233126e-01    3.280111e+00   2.198387e-01
  3.236697e-01    3.068909e+00   2.139434e-01
  3.240267e-01    2.974395e+00   2.118569e-01
  3.243838e-01    3.010250e+00   2.143903e-01
  3.247408e-01    2.946230e+00   2.133657e-01
  3.250979e-01    2.867486e+00   2.118364e-01
  3.254549e-01    2.876734e+00   2.136250e-01
  3.258120e-01    2.976806e+00   2.186477e-01
  3.261690e-01    2.957718e+00   2.193009e-01
  3.265261e-01    2.988276e+00   2.218169e-01
  3.268832e-01    3.019787e+00   2.244383e-01
  3.272402e-01    3.034413e+00   2.265795e-01
  3.275973e-01    3.028831e+00   2.278421e-01
  3.279543e-01    2.981362e+00   2.275357e-01
  3.283114e-01    2.992903e+00   2.294910e-01
  3.286684e-01    3.135832e+00   2.365271e-01
  3.290255e-01    3.064577e+00   2.355916e-01
  3.293825e-01    2.946607e+00   2.326046e-01
  3.297396e-01    2.929423e+00   2.335630e-01
  3.300966e-01    2.865597e+00   2.326635e-01
  3.304537e-01    2.824406e+00   2.326972e-01
  3.308107e-01    2.931590e+00   2.389631e-01
  3.311678e-01    3.111300e+00   2.479830e-01
  3.315249e-01    3.114434e+00   2.499498e-01
  3.318819e-01    2.986114e+00   2.465861e-01
  3.322390e-01    2.695911e+00   2.361974e-01
  3.325960e-01    2.839805e+00   2.444485e-01
  3.329531e-01    3.006898e+00   2.535097e-01
  3.333101e-01    3.052502e+00   2.574561e-01
  3.336672e-01    3.041510e+00   2.590639e-01
  3.340242e-01    3.129305e+00   2.651462e-01
  3.343813e-01    3.244986e+00   2.723588e-01
  3.347383e-01    3.151995e+00   2.706939e-01
  3.350954e-01    3.100394e+00   2.707677e-01
  3.354525e-01    3.138856e+00   2.748132e-01
  3.358095e-01    2.976136e+00   2.703300e-01
  3.361666e-01    2.919072e+00   2.701387e-01
  3.365236e-01    3.068933e+00   2.795218e-01
  3.368807e-01    3.252996e+00   2.904574e-01
  3.372377e-01    3.172676e+00   2.897275e-01
  3.375948e-01    3.036831e+00   2.864649e-01
  3.379518e-01    2.922044e+00   2.837584e-01
  3.383089e-01    2.840285e+00   2.825579e-01
  3.386659e-01    2.910114e+00   2.889221e-01
  3.390230e-01    3.103635e+00   3.018952e-01
  3.393800e-01    3.297743e+00   3.145892e-01
  3.397371e-01    3.283510e+00   3.173065e-01
  3.400942e-01    3.118395e+00   3.126384e-01
  3.404512e-01    2.975868e+00   3.090449e-01
  3.408083e-01    2.911081e+00   3.095862e-01
  3.411653e-01    2.830046e+00   3.088491e-01
  3.415224e-01    2.859467e+00   3.141931e-01
  3.418794e-01    2.948138e+00   3.229598e-01
  3.422365e-01    2.994644e+00   3.302553e-01
  3.425935e-01    3.018617e+00   3.359546e-01
  3.429506e-01    3.188781e+00   3.498878e-01
  3.433076e-01    3.157276e+00   3.529027e-01
  3.436647e-01    3.057703e+00   3.526013e-01
  3.440218e-01    2.899730e+00   3.487567e-01
  3.443788e-01    2.866000e+00   3.518701e-01
  3.447359e-01    2.836350e+00   3.553886e-01
  3.450929e-01    3.103089e+00   3.777583e-01
  3.454500e-01    3.166347e+00   3.887272e-01
  3.458070e-01    3.200084e+00   3.973632e-01
  3.461641e-01    3.523941e+00   4.242261e-01
  3.465211e-01    3.553670e+00   4.336611e-01
  3.468782e-01    3.857320e+00   4.616382e-01
  3.472352e-01    3.585229e+00   4.538703e-01
  3.475923e-01    3.121249e+00   4.320244e-01
  3.479494e-01    2.863848e+00   4.225023e-01
  3.483064e-01    2.758298e+00   4.248472e-01
  3.486635e-01    2.543351e+00   4.179622e-01
  3.490205e-01    2.617276e+00   4.345210e-01
  3.493776e-01    2.669349e+00   4.499542e-01
  3.497346e-01    3.004085e+00   4.911662e-01
  3.500917e-01    2.737371e+00   4.835497e-01
  3.504487e-01    2.544098e+00   4.801601e-01
  3.508058e-01    2.678915e+00   5.084199e-01
  3.511628e-01    2.700516e+00   5.288242e-01
  3.515199e-01    2.535826e+00   5.339616e-01
  3.518769e-01    2.938002e+00   5.976135e-01
  3.522340e-01    3.288377e+00   6.595230e-01
  3.525911e-01    2.901954e+00   6.497634e-01
  3.529481e-01    2.754093e+00   6.720514e-01
  3.533052e-01    2.427067e+00   6.682621e-01
  3.536622e-01    2.436856e+00   7.145160e-01
  3.540193e-01    2.687843e+00   8.094110e-01
  3.543763e-01    3.117331e+00   9.692385e-01
  3.547334e-01    3.091355e+00   1.084965e+00
  3.550904e-01    2.983732e+00   1.231223e+00
  3.554475e-01    2.999952e+00   1.513991e+00
  3.558045e-01    3.597038e+00   1.367090e+00
  3.561616e-01    4.000000e+00   7.460480e-01
  3.565187e-01    0.000000e+00   0.000000e+00
  3.568757e-01    0.000000e+00   0.000000e+00
